time [s],Oxidizer mass flow rate [g/s],Thrust [N],Chamber pressure [MPaG]
t,mox,F,Pc
0,8.140934094,1.404969413,0.21306648
0.005,8.211652901,1.451981268,0.223255166
0.01,8.250005767,1.659617053,0.233527365
0.015,8.285631894,1.788899723,0.244484384
0.02,8.318294149,1.996535488,0.255174152
0.025,8.343428078,2.110147488,0.266565435
0.03,8.364886739,2.078806243,0.26953853
0.035,8.383381527,2.215924195,0.275768655
0.04,8.397489731,2.274689005,0.2820823
0.045,8.409819563,2.384383355,0.288562975
0.05,8.419422575,2.415724605,0.296363165
0.055,8.427425085,2.654701655,0.30603406
0.06,8.434182832,2.807490205,0.31640648
0.065,8.439636391,2.95636109,0.327330085
0.07,8.443845107,3.06997314,0.339473
0.075,8.447461113,3.265855965,0.35131526
0.08,8.450247196,3.43039751,0.364326715
0.085,8.452796146,3.63411561,0.37915877
0.09,8.454989439,3.75948065,0.39562769
0.095,8.455819443,3.9122692,0.411962995
0.1,8.45789421,4.11990495,0.42791414
0.105,8.458012735,4.2570229,0.443280685
0.11,8.459198235,4.3941409,0.459632685
0.115,8.459435287,4.56651775,0.475216365
0.12,8.460146603,4.75848285,0.49088356
0.125,8.459790864,4.92694205,0.50661757
0.13,8.45990939,5.1737544,0.52108216
0.135,8.459316599,5.31479005,0.535630275
0.14,8.459612994,5.62428485,0.54959379
0.145,8.45973152,5.87893255,0.563958165
0.15,8.458842415,6.09832125,0.577253565
0.155,8.459553732,6.3686395,0.58927956
0.16,8.457834704,6.6272048,0.60048712
0.165,8.458249625,6.9445349,0.61259662
0.17,8.456826911,7.22660615,0.623119355
0.175,8.457538228,7.61837165,0.6336588
0.18,8.456115514,7.9435373,0.64322949
0.185,8.455700512,8.3862325,0.651246815
0.19,8.454929852,8.63304495,0.658612735
0.195,8.454929852,8.94645745,0.66509341
0.2,8.454811246,9.2677055,0.670421595
0.205,8.453625745,9.5027648,0.67610053
0.21,8.454040666,9.7378244,0.680610275
0.215,8.452499508,9.8671071,0.68410116
0.22,8.452855166,10.1335076,0.68849399
0.225,8.450899006,10.2862963,0.692001565
0.23,8.451610403,10.560532,0.6958432
0.235,8.451254745,10.79167395,0.698832995
0.24,8.45036556,11.11292195,0.700937545
0.245,8.449772769,11.33231095,0.703426255
0.25,8.449061453,11.54386415,0.70770216
0.255,8.449120716,11.71624125,0.711193045
0.26,8.447816609,11.8807826,0.715919925
0.265,8.448468662,12.0649125,0.720897345
0.27,8.447283162,12.0766655,0.724688875
0.275,8.447698083,12.1667715,0.729014895
0.28,8.446334633,12.139348,0.733257395
0.285,8.445919793,12.158936,0.737750435
0.29,8.446512583,12.1746065,0.74309532
0.295,8.445030607,12.1941945,0.746502685
0.3,8.444912,12.280383,0.75089551
0.305,8.443252235,12.4096655,0.75585623
0.31,8.4437265,12.527195,0.75999852
0.315,8.442540919,12.593795,0.763773345
0.32,8.443015103,12.7583365,0.767731895
0.325,8.442422393,12.832772,0.772091315
0.33,8.442007472,12.899372,0.77574922
0.335,8.441473864,12.9150425,0.779507345
0.34,8.44040689,12.938548,0.783031625
0.345,8.44082181,12.98556,0.78789213
0.35,8.439991969,12.9777245,0.79084852
0.355,8.440110413,12.9973125,0.794589935
0.36,8.439221228,13.0560775,0.79841487
0.365,8.438865569,13.1344305,0.80228991
0.37,8.437798595,13.130513,0.806231765
0.375,8.437442937,13.2284545,0.809338475
0.38,8.437443018,13.267631,0.81351417
0.385,8.436435306,13.291137,0.81616991
0.39,8.436376044,13.3459845,0.818775545
0.395,8.43572399,13.3851605,0.82231653
0.4,8.435368251,13.440008,0.825590275
0.405,8.43590186,13.5066085,0.8287471
0.41,8.434894067,13.4909375,0.83213776
0.415,8.4351312,13.5614555,0.83544491
0.42,8.434834804,13.6163025,0.838919085
0.425,8.434123488,13.5927965,0.842693915
0.43,8.433589961,13.6946555,0.845683705
0.435,8.433708567,13.780844,0.849658965
0.44,8.432522905,13.80435,0.852548545
0.445,8.432345117,13.8631155,0.854719905
0.45,8.432226591,13.898374,0.858194075
0.455,8.431100273,13.92188,0.861033545
0.46,8.431752407,14.008069,0.863856315
0.465,8.430566826,13.984563,0.86664568
0.47,8.429974036,14.0354925,0.870069745
0.475,8.430685352,14.1255985,0.87317646
0.48,8.430507563,14.109928,0.876433505
0.485,8.42967764,14.1334335,0.87908924
0.49,8.430329775,14.2587985,0.88286406
0.495,8.429618377,14.297975,0.88592067
0.5,8.428788455,14.3175635,0.88809203
0.505,8.428492059,14.3410695,0.89088139
0.51,8.427543611,14.3724105,0.893052745
0.515,8.42772148,14.4781875,0.89575859
0.52,8.426891638,14.489941,0.897278545
0.525,8.425291055,14.4742705,0.899533415
0.53,8.425468844,14.5878825,0.902022125
0.535,8.425468844,14.6192245,0.904895005
0.54,8.42440187,14.5918005,0.906949445
0.545,8.425113267,14.6584005,0.91007286
0.55,8.424876215,14.7250005,0.91324639
0.555,8.424164818,14.748506,0.91518391
0.56,8.423927686,14.7680945,0.91867479
0.565,8.423453421,14.7563415,0.920144635
0.57,8.423868342,14.873871,0.92315113
0.575,8.423453502,14.956142,0.925339195
0.58,8.422090051,14.924801,0.92669212
0.585,8.421971526,15.010989,0.929214235
0.59,8.421615787,15.0580015,0.932153925
0.595,8.420370943,15.0775895,0.933506845
0.6,8.420726601,15.1128485,0.93551118
0.605,8.420608156,15.1912015,0.93689751
0.61,8.41971897,15.214707,0.938584485
0.615,8.419659707,15.2656365,0.941841525
0.62,8.419481838,15.2303775,0.943528505
0.625,8.419422494,15.281307,0.946067325
0.63,8.419778233,15.3518245,0.94880658
0.635,8.419007573,15.3400715,0.950209615
0.64,8.418889047,15.3910005,0.952514595
0.645,8.418889047,15.4497655,0.956189205
0.65,8.417703466,15.4458475,0.958093315
0.655,8.417525597,15.4458475,0.96178463
0.66,8.418059124,15.5046125,0.9628202
0.665,8.416932887,15.5124475,0.96532561
0.67,8.416221571,15.528118,0.967530375
0.675,8.416340097,15.5320355,0.969534705
0.68,8.415510174,15.5594595,0.972190445
0.685,8.415747306,15.618224,0.97451213
0.69,8.415747306,15.64173,0.976149
0.695,8.415213779,15.629977,0.977685655
0.7,8.415332385,15.720083,0.980842475
0.705,8.415273122,15.724001,0.982479345
0.71,8.414265411,15.7161655,0.9864212
0.715,8.414680332,15.7631775,0.98909364
0.72,8.414087541,15.7945185,0.991164785
0.725,8.413257699,15.798436,0.992868465
0.73,8.413316962,15.8141065,0.994388415
0.735,8.412664909,15.837613,0.99665999
0.74,8.412131381,15.8728715,0.997996215
0.745,8.411479328,15.9198835,0.999315735
0.75,8.411005063,15.896378,1.000768875
0.755,8.410115877,15.9355545,1.002422445
0.76,8.410056614,15.9629785,1.0027565
0.765,8.40958235,16.0099905,1.00430986
0.77,8.409760219,16.06092,1.00746668
0.775,8.409641612,16.072673,1.008435445
0.78,8.409108085,16.107932,1.00992199
0.785,8.409108085,16.1549435,1.01162567
0.79,8.408456031,16.1706145,1.01369681
0.795,8.408337425,16.19412,1.01459876
0.8,8.407685371,16.2332965,1.01516666
0.805,8.407033318,16.272473,1.0178224
0.81,8.406440447,16.2685555,1.01934235
0.815,8.405551342,16.2528845,1.019242135
0.82,8.405254866,16.299897,1.02016079
0.825,8.404899207,16.3469085,1.023401125
0.83,8.40495847,16.3351555,1.024536915
0.835,8.404247073,16.323403,1.025739515
0.84,8.404424862,16.370415,1.027142545
0.845,8.403950678,16.3900035,1.02943082
0.85,8.403772808,16.4017565,1.03106769
0.855,8.405017652,16.4487685,1.03121802
0.86,8.404543468,16.4996975,1.033155545
0.865,8.40478052,16.554545,1.035594145
0.87,8.404602731,16.5545445,1.0359282
0.875,8.403772808,16.5506275,1.03597831
0.88,8.403180018,16.6172275,1.037849015
0.885,8.403476413,16.6407335,1.03925205
0.89,8.403061492,16.6093925,1.04070519
0.895,8.402883623,16.609393,1.04142341
0.9,8.402883623,16.66424,1.04342774
0.905,8.401698042,16.632899,1.04488088
0.91,8.402468621,16.6524875,1.045014505
0.915,8.402409358,16.668158,1.045098025
0.92,8.402350095,16.703417,1.047119055
0.925,8.40264649,16.7151695,1.04843857
0.93,8.402053781,16.6564045,1.04817133
0.935,8.401816648,16.7034165,1.049089975
0.94,8.401994518,16.7386755,1.04994182
0.945,8.401994518,16.7230045,1.05146177
0.95,8.401698122,16.6955815,1.05192945
0.955,8.401520253,16.766099,1.053883675
0.96,8.401105332,16.7974405,1.055286705
0.965,8.400808937,16.78177,1.05640579
0.97,8.400571885,16.7896055,1.057124015
0.975,8.400216227,16.809194,1.058527045
0.98,8.399919832,16.8366175,1.06028083
0.985,8.399623518,16.8170285,1.06078192
0.99,8.399030727,16.8131105,1.061917705
0.995,8.398852939,16.8522875,1.061850895
1,8.398734413,16.86404,1.062652625
1.005,8.398734413,16.8366165,1.062769545
1.01,8.398793676,16.860122,1.06363809
1.015,8.398438018,16.8875455,1.06497431
1.02,8.398319411,16.8797105,1.06594307
1.025,8.398793676,16.918887,1.065892965
1.03,8.398556543,16.942393,1.06761335
1.035,8.39790449,16.969817,1.068749135
1.04,8.398437937,16.989405,1.068665625
1.045,8.397963753,16.9776515,1.070152175
1.05,8.397608095,17.008993,1.0709038
1.055,8.397667438,17.0364165,1.071688825
1.06,8.396837597,16.9815695,1.07317537
1.065,8.397252518,17.0129105,1.073025045
1.07,8.396956122,17.0089925,1.073025045
1.075,8.396304069,17.005075,1.074043915
1.08,8.397015385,17.06384,1.073425915
1.085,8.397074648,17.0442515,1.07474543
1.09,8.396185543,17.067758,1.075764295
1.095,8.397133911,17.099099,1.075413535
1.1,8.396837516,17.06384,1.07658273
1.105,8.396244725,17.075593,1.076900085
1.11,8.396778253,17.1265225,1.077518085
1.115,8.395296357,17.0638405,1.07930528
1.12,8.395296357,17.091264,1.080274035
1.125,8.395592753,17.056005,1.08059139
1.13,8.395177832,17.0599225,1.080507875
1.135,8.395118569,17.0951815,1.080892045
1.14,8.395296357,17.110852,1.082295075
1.145,8.394407253,17.1147705,1.083531075
1.15,8.395059306,17.185288,1.08399875
1.155,8.395059306,17.161782,1.08588616
1.16,8.394525778,17.173535,1.085919565
1.165,8.395829885,17.2479705,1.08717227
1.17,8.394703567,17.255806,1.08870892
1.175,8.39476283,17.310653,1.089811295
1.18,8.394644304,17.2362175,1.093085025
1.185,8.39476283,17.2558055,1.09331886
1.19,8.394407253,17.2283815,1.09370303
1.195,8.394762911,17.275393,1.09495574
1.2,8.394229464,17.244052,1.096475715
1.205,8.394110857,17.31457,1.097795235
1.21,8.393992332,17.2871465,1.098747295
1.215,8.393399541,17.2949815,1.099198285
1.22,8.394466596,17.322405,1.100066815
1.225,8.393695936,17.338076,1.10215468
1.23,8.393695936,17.428182,1.102137985
1.235,8.393399541,17.4007585,1.10501083
1.24,8.393458804,17.416429,1.106213425
1.245,8.392866013,17.4085935,1.10699846
1.25,8.393103146,17.4399345,1.107633155
1.255,8.392806832,17.408593,1.108485
1.26,8.393280934,17.5182875,1.11189236
1.265,8.392866013,17.4556055,1.11160838
1.27,8.392806751,17.4673585,1.11179213
1.275,8.392806832,17.4751935,1.11185893
1.28,8.392747488,17.4791115,1.113629465
1.285,8.392451173,17.518288,1.112760965
1.29,8.392451092,17.5653,1.11446465
1.295,8.392451092,17.5692175,1.11503255
1.3,8.392095353,17.6083945,1.1152497
1.305,8.392510274,17.647571,1.1153332
1.31,8.391443381,17.6044765,1.1148822
1.315,8.392451012,17.710253,1.117688265
1.32,8.392451012,17.702418,1.118590215
1.325,8.392628881,17.7220065,1.119692565
1.33,8.392569618,17.7220065,1.120110115
1.335,8.392984458,17.753348,1.122932865
1.34,8.392688144,17.765101,1.122632215
1.345,8.393043802,17.812113,1.1256053
1.35,8.392747407,17.8277835,1.1263569
1.355,8.393043802,17.8552075,1.1267745
1.36,8.393340116,17.863043,1.12774325
1.365,8.392332486,17.8317015,1.1273424
1.37,8.392213879,17.859125,1.12727555
1.375,8.392095272,17.8865485,1.1291129
1.38,8.391680351,17.8826305,1.13078315
1.385,8.391680351,17.8512895,1.13014845
1.39,8.391324612,17.8434545,1.13282085
1.395,8.39108748,17.8669605,1.13295445
1.4,8.391206087,17.8552075,1.13484185
1.405,8.390020506,17.8434545,1.13617805
1.41,8.390968954,17.9022195,1.13714685
1.415,8.390376083,17.8787135,1.1380822
1.42,8.390257557,17.902219,1.1395855
1.425,8.390494689,17.913972,1.1387336
1.43,8.390020506,17.949231,1.14033705
1.435,8.389961243,17.953148,1.1412557
1.44,8.38990198,17.9453125,1.14005315
1.445,8.389546322,17.941395,1.14130585
1.45,8.389486978,17.929642,1.1408549
1.455,8.390257638,17.9453125,1.1409384
1.46,8.389249927,17.913971,1.14224125
1.465,8.390316982,17.9923245,1.14342715
1.47,8.389783454,17.960983,1.1431265
1.475,8.38972411,17.9844885,1.14503065
1.48,8.38990198,17.9844885,1.1453146
1.485,8.389783535,18.004077,1.14576555
1.49,8.390317063,18.0315005,1.14638355
1.495,8.390139274,18.043253,1.1465005
1.5,8.390672802,18.086347,1.1479202
1.505,8.389783616,18.015829,1.148271
1.51,8.390495013,18.04717,1.14765295
1.515,8.390080011,18.0393345,1.1485215
1.52,8.390613539,18.0902645,1.1503755
1.525,8.390198618,18.0354175,1.149674
1.53,8.390791328,18.051088,1.14980765
1.535,8.389724272,18.066759,1.1518788
1.54,8.389665009,18.0510885,1.1524634
1.545,8.38948714,18.0197475,1.15197905
1.55,8.388835087,18.035418,1.1539667
1.555,8.389902061,18.113771,1.1554532
1.56,8.388420085,18.019747,1.1566224
1.565,8.388183033,18.0315,1.1567226
1.57,8.38735311,18.0158295,1.1581423
1.575,8.387530899,18.0667595,1.16018005
1.58,8.387175241,18.0236655,1.15947855
1.585,8.387827294,18.051089,1.1594786
1.59,8.387590162,18.098101,1.16246835
1.595,8.38717516,18.0863485,1.1633536
1.6,8.386760158,18.082431,1.1619339
1.605,8.38563384,18.0550075,1.16463975
1.61,8.386582288,18.16862,1.16473995
1.615,8.386108024,18.121608,1.16597595
1.62,8.386108024,18.1294435,1.16724535
1.625,8.385930235,18.1529495,1.16727875
1.63,8.385870891,18.207797,1.168331
1.635,8.385989498,18.184291,1.16919955
1.64,8.385515233,18.160785,1.16826425
1.645,8.386641551,18.199961,1.1694668
1.65,8.386523025,18.1960435,1.16325336
1.655,8.386937946,18.2665615,1.15251351
1.66,8.385989498,18.203879,1.14974086
1.665,8.386582288,18.293985,1.15109376
1.67,8.386345156,18.2979025,1.15202916
1.675,8.385752365,18.278314,1.15371611
1.68,8.386048761,18.321408,1.15548661
1.685,8.385574496,18.333161,1.15580391
1.69,8.385752446,18.376255,1.15675596
1.695,8.384744735,18.376255,1.15812561
1.7,8.385100393,18.3723375,1.1658757
1.705,8.385159737,18.388008,1.16869846
1.71,8.385693183,18.4389375,1.16457291
1.715,8.385159737,18.388008,1.15924476
1.72,8.385633921,18.4350195,1.16001306
1.725,8.385219,18.431102,1.16231806
1.73,8.384329895,18.4115135,1.16226796
1.735,8.384448421,18.4311015,1.16375451
1.74,8.383677761,18.403678,1.16590916
1.745,8.3840335,18.4350195,1.16585901
1.75,8.383144395,18.4467725,1.16814726
1.755,8.382551604,18.399761,1.1766657
1.76,8.382907343,18.423267,1.18558495
1.765,8.382670211,18.43502,1.19211575
1.77,8.382966687,18.4154315,1.1923997
1.775,8.383915055,18.442855,1.190078
1.78,8.383440871,18.4311025,1.19118035
1.785,8.383559478,18.4781145,1.191481
1.79,8.384152268,18.48595,1.19042875
1.795,8.383203739,18.4585265,1.1910635
1.8,8.383974318,18.478115,1.19203225
1.805,8.38361866,18.4585265,1.1932014
1.81,8.382848,18.431103,1.1943706
1.815,8.38361866,18.478115,1.1946044
1.82,8.382314553,18.450692,1.194404
1.825,8.382314634,18.47028,1.1961244
1.83,8.383559397,18.489868,1.196709
1.835,8.38284808,18.4428565,1.19712655
1.84,8.383025869,18.4898685,1.19852955
1.845,8.38421145,18.540798,1.2000161
1.85,8.383322264,18.493786,1.19899725
1.855,8.383559316,18.5447155,1.20014975
1.86,8.383737185,18.568221,1.2022209
1.865,8.382847919,18.525127,1.20245475
1.87,8.383737104,18.5995625,1.2046595
1.875,8.383025707,18.5682215,1.2050938
1.88,8.382195865,18.5721395,1.2055281
1.885,8.382610786,18.6152335,1.20753245
1.89,8.382314472,18.576057,1.2091192
1.895,8.381425286,18.556469,1.21017145
1.9,8.382255209,18.630904,1.21277705
1.905,8.382433079,18.6348215,1.21271025
1.91,8.381543893,18.630904,1.2137458
1.915,8.38207742,18.673998,1.21573345
1.92,8.381662419,18.6426565,1.2143805
1.925,8.382136683,18.693586,1.2176375
1.93,8.382432998,18.7053385,1.2187232
1.935,8.382018077,18.6935855,1.21830565
1.94,8.382195865,18.7836915,1.22066075
1.945,8.382255209,18.7680205,1.2196252
1.95,8.381840288,18.7836915,1.2203434
1.955,8.381662499,18.768021,1.22266505
1.96,8.382314553,18.791527,1.22258155
1.965,8.381662499,18.7954445,1.2229657
1.97,8.38148463,18.7876095,1.2259221
1.975,8.381543893,18.8071975,1.22451905
1.98,8.380951102,18.791527,1.22608905
1.985,8.381010284,18.791527,1.22672375
1.99,8.380832496,18.7680205,1.22478625
1.995,8.380832415,18.8346205,1.228227
2,8.380476757,18.803279,1.2278262
2.005,8.380713889,18.850291,1.2272416
2.01,8.380417494,18.8346205,1.22814355
2.015,8.380951021,18.830703,1.2296802
2.02,8.380713889,18.8424555,1.2277427
2.025,8.380358231,18.826785,1.22979715
2.03,8.380832496,18.850291,1.23145075
2.035,8.380358312,18.8307025,1.2313171
2.04,8.379646915,18.7993615,1.232052
2.045,8.380180442,18.807197,1.2318683
2.05,8.379646834,18.7915265,1.23161775
2.055,8.37899478,18.7915265,1.2335386
2.06,8.378935517,18.7680205,1.2330041
2.065,8.378283464,18.795444,1.2322358
2.07,8.379350519,18.830703,1.2358102
2.075,8.378698466,18.795444,1.23408985
2.08,8.37857994,18.8189495,1.2332046
2.085,8.379291256,18.8659615,1.2379315
2.09,8.379765521,18.846373,1.2368625
2.095,8.378817073,18.8150315,1.23594385
2.1,8.379113468,18.854208,1.2397521
2.105,8.379113387,18.830702,1.23709635
2.11,8.378461334,18.8973025,1.23836575
2.115,8.378698385,18.8189495,1.24016965
2.12,8.377335015,18.8071965,1.2367289
2.125,8.377987069,18.869879,1.2386664
2.13,8.377631411,18.826785,1.2398857
2.135,8.376860832,18.811114,1.2355263
2.14,8.376742225,18.905138,1.24047035
2.145,8.376979357,18.8424555,1.23938465
2.15,8.377631411,18.8659615,1.2351254
2.155,8.376801488,18.858126,1.23881675
2.16,8.377749936,18.85029,1.236612
2.165,8.376742225,18.940396,1.23522565
2.17,8.377394278,18.9129725,1.2403367
2.175,8.376030909,18.830702,1.2364283
2.18,8.37644583,18.912973,1.23545955
2.185,8.37626796,18.881632,1.23928445
2.19,8.376386567,18.8307025,1.2340899
2.195,8.376090172,18.944315,1.2377478
2.2,8.37585312,18.873797,1.2395517
2.205,8.377394359,18.9364795,1.23487485
2.21,8.376979357,18.9560685,1.238182
2.215,8.378105675,18.924727,1.23722995
2.22,8.376979357,18.9874095,1.23360545
2.225,8.378224201,19.0618445,1.2384659
2.23,8.377038701,18.9364795,1.23562645
2.235,8.378105675,19.0344215,1.2332046
2.24,8.377631411,19.014833,1.23728005
2.245,8.378046413,18.9756565,1.23357205
2.25,8.378164938,19.0344215,1.2338226
2.255,8.377572229,18.983492,1.23768095
2.26,8.378224282,18.967821,1.23467445
2.265,8.377512885,19.0030805,1.2364115
2.27,8.378402071,18.9678215,1.2372132
2.275,8.37721649,18.948234,1.2340898
2.28,8.37840199,19.0422575,1.2374804
2.285,8.377038701,18.916892,1.23614415
2.29,8.377512885,18.9834925,1.2326032
2.295,8.377157146,18.9795745,1.23549275
2.3,8.376505173,18.9599865,1.23547605
2.305,8.376505173,18.9678215,1.2332045
2.31,8.375023278,18.952151,1.23542595
2.315,8.375793938,18.940398,1.2355763
2.32,8.374430488,18.9247275,1.2345908
2.325,8.375023278,18.9403975,1.23597715
2.33,8.373956304,18.9012215,1.2355095
2.335,8.374786146,18.9717395,1.23601055
2.34,8.373956304,18.9168925,1.23851595
2.345,8.373778434,18.912975,1.2368958
2.35,8.373600484,18.936481,1.237447
2.355,8.373600484,18.9364815,1.23903375
2.36,8.37371909,18.936481,1.23824875
2.365,8.372592772,18.944316,1.23721315
2.37,8.373837697,18.979575,1.23966845
2.375,8.373244907,18.944316,1.23931765
2.38,8.373541302,18.9874095,1.23859945
2.385,8.373244907,18.983492,1.2405871
2.39,8.373304169,19.00308,1.2396517
2.395,8.373778434,19.038339,1.24055365
2.4,8.373897041,19.00308,1.24065385
2.405,8.373126381,19.0226685,1.2414723
2.41,8.374134011,19.034422,1.24055365
2.415,8.374134092,19.022669,1.2422073
2.42,8.373600565,19.030504,1.24045355
2.425,8.374252618,19.0971045,1.24230755
2.43,8.374134092,19.03834,1.242675
2.435,8.373719171,19.05401,1.24058715
2.44,8.373897041,19.0265865,1.24107155
2.445,8.373067118,18.991327,1.24235765
2.45,8.37407483,19.0187505,1.2420737
2.455,8.374193436,19.010915,1.24005265
2.46,8.373185725,19.0265855,1.24377735
2.465,8.373659909,19.022668,1.2429088
2.47,8.374193436,19.038339,1.2440613
2.475,8.373600646,18.9834915,1.2438609
2.48,8.37389696,19.0892685,1.2450802
2.485,8.374193355,19.05401,1.2451303
2.49,8.373482039,19.0657625,1.2457817
2.495,8.373659909,19.042257,1.24416155
2.5,8.37271146,19.0579275,1.24469605
2.505,8.372948511,19.042257,1.24691755
2.51,8.373422776,19.034422,1.2436605
2.515,8.373126381,19.0814335,1.24526395
2.52,8.37271146,19.0422565,1.2465835
2.525,8.373244988,19.085351,1.24451235
2.53,8.373007855,19.0265855,1.24504685
2.535,8.372889248,19.081433,1.2463998
2.54,8.37371909,19.073598,1.2439278
2.545,8.373541302,19.1088565,1.24629955
2.55,8.373541302,19.0540095,1.2460323
2.555,8.373719171,19.1088565,1.24474615
